"Tid(s)", "Total energi(J)", "Energi/E0", "Vridmoment(kg*m^2/s)", "Vridmoment/L0", "Vinkel(rad)", "Avstånd från analytisk lösning(m)", "Avstånd från analytisk lösning/r0", "p1 vel", "p2 vel", "reducerad vel"
1, -2337.04415915493, 0.999954713378793, 0.0200001668682463, 2.00001668682463E-07, -0.00500025661028714, 5.19992857919919, 0.0100010166677164, 0.000166864074328371, 0.0100048166407228
2, -2336.74322404995, 0.999825951808127, 0.0200003338053756, 2.00003338053756E-07, -0.0100019740692672, 5.19819390796579, 0.0100039836850977, 0.000333772093715301, 0.0100190911146913
3, -2336.2468888547, 0.99961358409742, 0.0200005008825631, 2.00005008825631E-07, -0.0150065737153519, 5.19530307723869, 0.0100089024861798, 0.00050077043589451, 0.0100427984155137
4, -2335.55462931002, 0.999317385931086, 0.0200006681712578, 2.00006681712578E-07, -0.0200154812819942, 5.19125655340068, 0.0100157755355363, 0.000667905613941616, 0.0100758977255013
5, -2334.66570197663, 0.998937039212607, 0.020000835743323, 2.0000835743323E-07, -0.0250301291026183, 5.18605500540793, 0.0100246063366451, 0.000835224346805667, 0.0101183330558153
5.99999999999999, -2333.57914204721, 0.998472131128377, 0.0200010036711801, 2.00010036711801E-07, -0.0300519583398348, 5.17969930411702, 0.0100353994437161, 0.00100277363058507, 0.0101700341149018
6.99999999999999, -2332.29376049105, 0.997922152925983, 0.0200011720279534, 2.00011720279534E-07, -0.0350824212472889, 5.17219052139958, 0.0100481604770259, 0.00117060081080983, 0.0102309173811866
7.99999999999999, -2330.80814051508, 0.997286498399966, 0.0200013408876193, 2.00013408876193E-07, -0.0401229834727052, 5.16352992904345, 0.0100628961418262, 0.00133875365599855, 0.0103008873513528
8.99999999999998, -2329.12063332074, 0.996564462076334, 0.0200015103251585, 2.00015103251585E-07, -0.045175126410978, 5.15371899743946, 0.010079614250903, 0.00150728043276744, 0.0103798379322619
9.99999999999998, -2327.22935313238, 0.995755237085329, 0.0200016804167129, 2.00016804167129E-07, -0.0502403496164926, 5.14275939405234, 0.0100983237508837, 0.00167622998277865, 0.0104676539427732
11, -2325.13217146789, 0.994857912710005, 0.0200018512397481, 2.00018512397481E-07, -0.0553201732842769, 5.130652981674, 0.010119034752405, 0.00184565180182802, 0.0105642126913435
12, -2322.82671061795, 0.993871471596186, 0.0200020228732214, 2.00020228732214E-07, -0.0604161408100592, 5.11740181645751, 0.0101417585642749, 0.00201559612138675, 0.0106693855962368
13, -2320.31033629502, 0.992794786607164, 0.0200021953977572, 2.00021953977572E-07, -0.0655298214398634, 5.10300814572943, 0.0101665077317789, 0.00218611399292865, 0.0107830398172684
14, -2317.58014940767, 0.991626617304192, 0.02000236889583, 2.000236889583E-07, -0.0706628130204144, 5.08747440557793, 0.0101932960793062, 0.00235725737539396, 0.0109050398710183
15, -2314.63297691024, 0.990365606031299, 0.0200025434519564, 2.00025434519564E-07, -0.0758167448623489, 5.07080321821406, 0.0102221387574915, 0.00252907922616299, 0.0110352492051262
16, -2311.4653616711, 0.989010273580203, 0.0200027191528961, 2.00027191528961E-07, -0.0809932807290565, 5.05299738910266, 0.0102530522950946, 0.00270163359593802, 0.0111735317113835
17, -2308.07355129598, 0.987559014408139, 0.0200028960878653, 2.00028960878653E-07, -0.0861941219649086, 5.0340599038594, 0.010286054655869, 0.00287497572796054, 0.0113197531616097
18, -2304.45348583513, 0.986010091378107, 0.0200030743487607, 2.00030743487607E-07, -0.0914210107776835, 5.0139939249099, 0.0103211653006976, 0.00304916216202259, 0.0114737825545576
19, -2300.60078429476, 0.984361629987491, 0.0200032540303981, 2.00032540303981E-07, -0.096675733691183, 4.99280278790618, 0.0103584052553113, 0.00322425084376758, 0.0116354933661446
20, -2296.51072986377, 0.982611612046998, 0.0200034352307653, 2.00034352307653E-07, -0.101960125185365, 4.97048999789541, 0.010397797183938, 0.00340030123981607, 0.011804764699036
21, -2292.17825375666, 0.980757868767507, 0.0200036180512918, 2.00036180512918E-07, -0.107276071542809, 4.94705922523515, 0.0104393654692733, 0.00357737445929767, 0.0119814823309214
22, -2287.59791756211, 0.978798073207526, 0.0200038025971367, 2.00038025971367E-07, -0.112625514922021, 4.92251430124877, 0.0104831362992085, 0.0037555333824211, 0.012165539663678
23.0000000000001, -2282.76389397412, 0.976729732028576, 0.0200039889774968, 2.00039889774968E-07, -0.118010457679939, 4.89685921361367, 0.010529137760798, 0.00393484279677178, 0.0123568385779834
24.0000000000001, -2277.6699457682, 0.974550176499744, 0.0200041773059369, 2.00041773059369E-07, -0.123432966968151, 4.87009810147462, 0.0105773999420073, 0.00411536954209009, 0.0125552901998432
25.0000000000001, -2272.30940286999, 0.972256552685944, 0.020004367700745, 2.0004367700745E-07, -0.128895179629679, 4.84223525027318, 0.01062795504184, 0.00429718266435586, 0.012760815586961
26.0000000000001, -2266.67513734516, 0.969845810746855, 0.0200045602853145, 2.00045602853145E-07, -0.134399307425866, 4.81327508628339, 0.0106808374895131, 0.00448035358008485, 0.0129733463439444
27.0000000000001, -2260.7595361205, 0.967314693265014, 0.0200047551885564, 2.00047551885564E-07, -0.139947642625895, 4.78322217084282, 0.0107360840734242, 0.00466495625183399, 0.0131928251760689
28.0000000000001, -2254.5544712231, 0.964659722512036, 0.0200049525453457, 2.00049525453457E-07, -0.145542563994853, 4.75208119426669, 0.0107937340807405, 0.00485106737601411, 0.0134192063917631
29.0000000000001, -2248.05126729993, 0.961877186551145, 0.0200051524970035, 2.00051524970035E-07, -0.151186543220052, 4.71985696943171, 0.010853829448533, 0.00503876658422353, 0.0136524563641954
30.0000000000002, -2241.24066615134, 0.958963124062086, 0.0200053551918212, 2.00053551918212E-07, -0.156882151819629, 4.68655442501443, 0.0109164149274887, 0.0052281366594455, 0.0138925539623884
31.0000000000002, -2234.11278798022, 0.95591330776072, 0.0200055607856295, 2.00055607856295E-07, -0.162632068582275, 4.65217859836739, 0.0109815382593533, 0.00541926376859822, 0.0141394909622151
32.0000000000002, -2226.65708902175, 0.952723226270026, 0.0200057694424182, 2.00057694424182E-07, -0.168439087592477, 4.6167346280147, 0.0110492503693902, 0.00561223771309152, 0.0143932724474816
33.0000000000002, -2218.86231517764, 0.949388064281491, 0.0200059813350123, 2.00059813350123E-07, -0.17430612690185, 4.58022774574612, 0.0111196055753007, 0.00580715219923089, 0.0146539172111275
34.0000000000002, -2210.71645123122, 0.945902680825703, 0.0200061966458105, 2.00061966458105E-07, -0.180236237914241, 4.54266326828685, 0.0111926618142172, 0.0060041051305214, 0.0149214581663985
35.0000000000002, -2202.20666516616, 0.942261585447906, 0.0200064155675938, 2.00064155675938E-07, -0.186232615560315, 4.50404658851741, 0.0112684808895842, 0.00620319892416479, 0.0151959427777077
36.0000000000002, -2193.31924704978, 0.938458912057921, 0.020006638304412, 2.0006638304412E-07, -0.192298609346509, 4.4643831662152, 0.0113471287399605, 0.00640454085431637, 0.0154774335208293
37.0000000000003, -2184.03954187153, 0.934488390193623, 0.0200068650725577, 2.00068650725577E-07, -0.198437735373725, 4.42367851828606, 0.0114286757320359, 0.00660824342498091, 0.015766008382075
38.0000000000003, -2174.35187564577, 0.930343313402435, 0.0200070961016383, 2.00070961016383E-07, -0.204653689433114, 4.3819382084505, 0.0115131969804413, 0.00681442477578247, 0.0160617614062245
39.0000000000003, -2164.23947399481, 0.926016504405332, 0.0200073316357577, 2.00073316357577E-07, -0.210950361300023, 4.33916783634534, 0.0116007726972691, 0.00702320912425163, 0.0163648033032283
40.0000000000003, -2153.68437232018, 0.921500276661671, 0.0200075719348224, 2.00075719348224E-07, -0.21733185036301, 4.29537302599682, 0.0116914885745964, 0.00723472724874094, 0.0166752621240923
41.0000000000003, -2142.66731654524, 0.916786391899778, 0.0200078172759865, 2.00078172759865E-07, -0.223802482742984, 4.25055941361604, 0.0117854362037481, 0.00744911701661752, 0.0169932840169213
42.0000000000003, -2131.16765326739, 0.911866013116219, 0.0200080679552545, 2.00080679552545E-07, -0.230366830078551, 4.20473263466211, 0.0118827135355354, 0.00766652396300119, 0.0173190340748476
43.0000000000003, -2119.16320798996, 0.906729652474661, 0.0200083242892627, 2.00083242892627E-07, -0.237029730177943, 4.1578983101115, 0.0119834253862927, 0.00788710192603219, 0.017652697288543
44.0000000000004, -2106.63014990694, 0.901367113451138, 0.0200085866172626, 2.00085866172626E-07, -0.243796309766101, 4.110062031865, 0.0120876839952092, 0.00811101374548117, 0.0179944796172283
45.0000000000004, -2093.54284148462, 0.89576742647429, 0.0200088553033353, 2.00088553033353E-07, -0.250672009588319, 4.06122934721519, 0.0121956096392325, 0.0083384320324757, 0.0183446091935891
46.0000000000004, -2079.87367081425, 0.88991877719384, 0.020009130738867, 2.0009130738867E-07, -0.257662612170111, 4.01140574228785, 0.0123073313127377, 0.00856954001923714, 0.0187033376798261
47.0000000000004, -2065.59286439331, 0.883808426375037, 0.0200094133453251, 2.00094133453251E-07, -0.264774272577757, 3.96059662436017, 0.0124229874802154, 0.00880453249902787, 0.01907094179426
48.0000000000004, -2050.66827761906, 0.877422620256794, 0.0200097035773777, 2.00097035773777E-07, -0.272013552576545, 3.90880730294608, 0.0125427269114799, 0.0090436168680382, 0.0194477250305442
49.0000000000004, -2035.06515983553, 0.87074649002197, 0.0200100019264072, 2.00100019264072E-07, -0.279387458645586, 3.85604296952537, 0.0126667096103615, 0.00928701428273738, 0.0198340195946758
50.0000000000004, -2018.74589024957, 0.863763938803392, 0.0200103089244783, 2.00103089244783E-07, -0.286903484381127, 3.80230867577698, 0.0127951078495689, 0.00953496094832712, 0.0202301885887513
51.0000000000005, -2001.66968040597, 0.856457514381387, 0.0200106251488314, 2.00106251488314E-07, -0.294569657906852, 3.74760931015881, 0.0129281073264457, 0.00978770955643385, 0.0206366284748845
52.0000000000005, -1983.79223816238, 0.848808265408232, 0.0200109512269844, 2.00109512269844E-07, -0.302394595012583, 3.69194957265525, 0.0130659084567588, 0.0100455308931364, 0.0210537718580477
53.0000000000005, -1965.06538720681, 0.840795578610505, 0.0200112878425412, 2.00112878425412E-07, -0.310387558865594, 3.63533394748966, 0.0132087278265291, 0.0103087156419483, 0.0214820906329841
54.0000000000005, -1945.43663507758, 0.832396993957119, 0.0200116357418263, 2.00116357418263E-07, -0.318558527285879, 3.57776667357074, 0.013356799825349, 0.0105775764105789, 0.0219220995479939
55.0000000000005, -1924.84868133617, 0.823587994220461, 0.0200119957414849, 2.00119957414849E-07, -0.326918268753614, 3.51925171241035, 0.0135103784887459, 0.010852450015337, 0.022374360247594
56.0000000000005, -1903.23885595239, 0.814341764677409, 0.0200123687372177, 2.00123687372177E-07, -0.335478428530715, 3.45979271321221, 0.0136697395821014, 0.0111337000631059, 0.0228394858671413
57.0000000000005, -1880.53847602059, 0.804628917866458, 0.0200127557138547, 2.00127557138547E-07, -0.344251626537458, 3.3993929747882, 0.0138351829646275, 0.0114217198781439, 0.0233181462659238
58.0000000000006, -1856.67210654593, 0.794417177299241, 0.0200131577570135, 2.00131577570135E-07, -0.353251568940807, 3.33805540390865, 0.0140070352791672, 0.011716935829858, 0.0238110740015164
59.0000000000006, -1831.5567081104, 0.783671012771022, 0.0200135760666428, 2.00135760666428E-07, -0.362493175797453, 3.27578246963401, 0.0141856530224517, 0.0120198111285351, 0.0243190711680792
60.0000000000006, -1805.10065060068, 0.772351218362931, 0.0200140119728163, 2.00140119728163E-07, -0.371992727569867, 3.21257615310707, 0.0143714260613101, 0.0123308501692906, 0.0248430172456245
61.0000000000006, -1777.20256766762, 0.760414422297751, 0.0200144669542291, 2.00144669542291E-07, -0.38176803392137, 3.14843789220423, 0.0145647816737034, 0.0126506035208342, 0.0253838781372741
62.0000000000006, -1747.75002094023, 0.747812515395096, 0.0200149426599507, 2.00149426599507E-07, -0.391838628927001, 3.08336852035029, 0.0147661892100148, 0.012979673675872, 0.0259427166086392
63.0000000000006, -1716.61793591121, 0.734491981831308, 0.0200154409351272, 2.00154409351272E-07, -0.40222599775072, 3.01736819869003, 0.0149761654906403, 0.0133187217051163, 0.0265207043896418
64.0000000000006, -1683.6667624131, 0.720393112059541, 0.0200159638514954, 2.00159638514954E-07, -0.412953840989187, 2.95043634067914, 0.0151952810817322, 0.0136684749883542, 0.0271191362568985
65.0000000000006, -1648.74030113802, 0.705449072839379, 0.0200165137437962, 2.00165137437962E-07, -0.424048384338055, 2.88257152800267, 0.0154241676234507, 0.0140297362356498, 0.0277394464875639
66.0000000000005, -1611.66312294155, 0.689584803030396, 0.0200170932534633, 2.00170932534633E-07, -0.435538743092436, 2.81377141654676, 0.0156635264262883, 0.0144033940619674, 0.0283832281677525
67.0000000000005, -1572.23748865936, 0.672715695669291, 0.0200177053813429, 2.00177053813429E-07, -0.44745735337584, 2.74403263093352, 0.0159141386036224, 0.0147904354425477, 0.02905225595631
68.0000000000004, -1530.23965240779, 0.654746016257392, 0.0200183535517008, 2.00183535517008E-07, -0.459840485074263, 2.67335064587381, 0.0161768770762548, 0.0151919604586555, 0.0297485130558692
69.0000000000004, -1485.41539884259, 0.6355669932806, 0.0200190416904416, 2.00190416904416E-07, -0.472728855472063, 2.60171965229151, 0.0164527208722597, 0.0156091998498325, 0.0304742233388317
70.0000000000003, -1437.47462182492, 0.615054498574812, 0.0200197743213621, 2.00197743213621E-07, -0.486168367873872, 2.52913240581768, 0.0167427722597798, 0.0160435360277839, 0.0312318898313135
71.0000000000002, -1386.08469446301, 0.593066210555335, 0.0200205566854797, 2.00205566854797E-07, -0.500211006515623, 2.45558005483753, 0.017048277400952, 0.0164965283899457, 0.0320243410942394
72.0000000000002, -1330.86230295536, 0.569438120150703, 0.0200213948901527, 2.00213948901527E-07, -0.514915928475572, 2.38105194478998, 0.0173706514151686, 0.0169699440136965, 0.032854787487223
73.0000000000001, -1271.36331097136, 0.543980194059485, 0.0200222960970324, 2.00222960970324E-07, -0.530350806038191, 2.30553539486673, 0.0177115090082458, 0.0174657951378834, 0.0337268898995352
74.0000000000001, -1207.07007564974, 0.516470947626813, 0.0200232687611563, 2.00232687611563E-07, -0.546593490415003, 2.2290154426391, 0.0180727021878355, 0.0179863852795559, 0.0346448443435619
75, -1137.37543317255, 0.486650592727092, 0.0200243229381472, 2.00243229381472E-07, -0.563734091915864, 2.15147455147759, 0.0184563670839415, 0.0185343664380996, 0.0356134869171485
76, -1061.5622849888, 0.454212303289791, 0.0200254706832088, 2.00254706832088E-07, -0.581877605629101, 2.07289227497014, 0.0188649825846895, 0.0191128106763841, 0.0366384251810021
76.9999999999999, -978.777304996675, 0.418790965350661, 0.0200267265754756, 2.00267265754756E-07, -0.601147260030071, 1.99324487199709, 0.0193014444682371, 0.0197253005437003, 0.0377262041583763
77.9999999999998, -887.996691115916, 0.379948523123849, 0.0200281084159973, 2.00281084159973E-07, -0.621688835845243, 1.91250486589745, 0.0197691600934215, 0.0203760444767954, 0.0388845182384886
78.9999999999998, -787.981003425992, 0.337154655525932, 0.0200296381699989, 2.00296381699989E-07, -0.643676305225348, 1.83064054167062, 0.0202721707072065, 0.0210700257276197, 0.0401224847023381
79.9999999999997, -677.214807242708, 0.289760951165392, 0.0200313432587106, 2.00313432587106E-07, -0.667319294958918, 1.74761537718571, 0.020815311354223, 0.0218131969024912, 0.0414510010947889
80.9999999999997, -553.824813248549, 0.236965882833069, 0.0200332583609318, 2.00332583609318E-07, -0.692873111901182, 1.6633874094093, 0.0214044227405957, 0.0226127374685016, 0.0428832183651719
81.9999999999996, -415.467041342255, 0.177766528123266, 0.0200354279734877, 2.00354279734877E-07, -0.720652434212424, 1.57790854758147, 0.0220466360376203, 0.0234773995833295, 0.0444351764207282
82.9999999999996, -259.168478442286, 0.110890819312239, 0.0200379101279401, 2.00379101279401E-07, -0.751050355196115, 1.49112386765033, 0.0227507618840457, 0.0244179799840999, 0.0461266715211157
83.9999999999995, -81.1004248893005, 0.0347005647314782, 0.0200407819150623, 2.00407819150623E-07, -0.784565421937985, 1.40297096719515, 0.0235278310874954, 0.0254479752244334, 0.047982460935327
84.9999999999994, 123.753183456818, -0.0529504667716773, 0.0200441479189362, 2.00441479189362E-07, -0.821840922172426, 1.31337955005166, 0.0243918607671688, 0.0265845091088648, 0.0500339683863726
85.9999999999994, 362.093244611411, -0.154929398836318, 0.0200481534903502, 2.00481534903502E-07, -0.863723479064461, 1.22227159210484, 0.0253609630345812, 0.0278496732556917, 0.0523217497125275
86.9999999999993, 643.072431163038, -0.275152399695333, 0.0200530063750458, 2.00530063750458E-07, -0.911353080100639, 1.1295628167629, 0.0264589865136985, 0.0292725095439672, 0.0548991399264821
87.9999999999993, 979.514382352381, -0.419106339783393, 0.0200590133956031, 2.00590133956031E-07, -0.966306187057297, 1.0351670127158, 0.0277180069384257, 0.0308920140462885, 0.0578377807401823
88.9999999999992, 1389.91861669846, -0.594706636815593, 0.0200666456219273, 2.00666456219273E-07, -1.03083227577606, 0.939006510112756, 0.0291822017758035, 0.0327618034651111, 0.0612362093335353
89.9999999999992, 1901.88022894762, -0.813760446831178, 0.020076660594911, 2.0076660594911E-07, -1.10826270402625, 0.841036284076006, 0.0309140175705347, 0.0349575303797065, 0.065233509986807
90.9999999999991, 2558.14185761032, -1.0945561289411, 0.0200903464712469, 2.00903464712469E-07, -1.2037543263462, 0.741299402279729, 0.033004118188327, 0.0375888195164079, 0.070031295433201
91.999999999999, 3427.62639898003, -1.46658382980706, 0.0201100463451127, 2.01100463451127E-07, -1.32571932275169, 0.640058573152463, 0.0355871287082418, 0.0408181011307479, 0.0759284019273016
92.999999999999, 4625.4829592979, -1.97911257632193, 0.0201403761789355, 2.01403761789355E-07, -1.48872531522125, 0.538125135011623, 0.0388632148370317, 0.0448862637661885, 0.0833681730920994
93.9999999999989, 6344.40671875281, -2.7145911544534, 0.020191246178516, 2.0191246178516E-07, -1.71950835461851, 0.437735578270132, 0.0431051906000895, 0.0501203861071687, 0.0929527897397568
94.9999999999989, 8855.55537727737, -3.78904023032985, 0.0202850896971013, 2.02850896971013E-07, -2.06770162497669, 0.344968504518397, 0.0485013513716608, 0.0567428483532573, 0.105091692574799
95.9999999999988, 12106.1472952425, -5.17987604184295, 0.0204645436137723, 2.04645436137723E-07, -2.60448216110713, 0.275352525806372, 0.0541327324539381, 0.0636396920177775, 0.117731585592374
96.9999999999988, 14039.2346485732, -6.00698912944288, 0.0207362202367893, 2.07362202367893E-07, 2.97695914409787, 0.255114351330805, 0.0559507076886036, 0.0659344897797297, 0.121883867951168
97.9999999999987, 12493.22304338, -5.34549474325625, 0.0209692079988102, 2.09692079988102E-07, 2.35444223918436, 0.290260586486932, 0.0519100577972745, 0.0611576877989708, 0.113003689120601
98.9999999999987, 9876.79389503242, -4.22599914071792, 0.0210984753610888, 2.10984753610888E-07, 1.93676684870797, 0.354499256407072, 0.0463332076396807, 0.0544952431773439, 0.100662780203406
99.9999999999986, 7806.85853344519, -3.34033268332541, 0.02116530270433, 2.116530270433E-07, 1.66670486274016, 0.426709633791477, 0.0416551398152406, 0.0488841275732145, 0.0902752302862923
100.999999999999, 6342.00705187098, -2.71356440525843, 0.0212027430112474, 2.12027430112474E-07, 1.48223825660228, 0.498498591879686, 0.0380441561044498, 0.0445393255788322, 0.0822327104833224
101.999999999998, 5292.94249135893, -2.26469952274718, 0.0212257704172234, 2.12257704172234E-07, 1.34828661229999, 0.567165405802025, 0.0352379196597572, 0.0411531092013009, 0.0759643255598533
